# Energy profile
1         0.00000   0.00000   -286.83651          0.00000             
2         0.19836   0.03849   -286.83321          2.07029             
3         0.39116   0.07591   -286.82690          6.02563             
4         0.59907   0.11625   -286.81583          12.97365            
5         0.79473   0.15422   -286.80324          20.87420            
6         0.99528   0.19314   -286.79073          28.72201            
7         1.24683   0.24195   -286.81485          13.59132            
8         1.60061   0.31060   -286.82447          7.55079             
9         1.82506   0.35416   -286.84218          -3.56257            
10        2.04069   0.39600   -286.85670          -12.67521           
11        2.26261   0.43907   -286.86930          -20.58072           
12        2.48424   0.48207   -286.87878          -26.52696           
13        2.64007   0.51231   -286.88454          -30.14171           
14        2.85956   0.55491   -286.88772          -32.13564           
15        3.08258   0.59818   -286.89264          -35.22314           
16        3.29794   0.63998   -286.89695          -37.93197           
17        3.51929   0.68293   -286.90215          -41.19143           
18        3.74362   0.72646   -286.90629          -43.79152           
19        3.97662   0.77168   -286.91059          -46.49065           
20        4.19517   0.81409   -286.91346          -48.28878           
21        4.38328   0.85059   -286.91667          -50.30357           
22        4.60497   0.89361   -286.92025          -52.55223           
23        4.78791   0.92911   -286.92218          -53.75926           
24        4.96925   0.96430   -286.92285          -54.18324           
25        5.15322   1.00000   -286.92432          -55.10336           
