# Energy profile
1         0.00000   0.00000   -286.85495          0.00000             
2         0.09084   0.04194   -286.85429          0.41401             
3         0.18721   0.08643   -286.85353          0.88991             
4         0.27839   0.12852   -286.85340          0.97369             
5         0.37341   0.17239   -286.85252          1.52204             
6         0.46790   0.21601   -286.85072          2.65556             
7         0.58071   0.26809   -286.85005          3.07347             
8         0.68006   0.31396   -286.84839          4.11482             
9         0.76480   0.35308   -286.84670          5.17637             
10        0.87723   0.40498   -286.84514          6.15673             
11        0.96377   0.44494   -286.84306          7.46023             
12        1.05529   0.48719   -286.84126          8.59067             
13        1.14537   0.52878   -286.83804          10.61284            
14        1.27448   0.58838   -286.83315          13.67993            
15        1.40162   0.64708   -286.83104          15.00154            
16        1.51141   0.69777   -286.83465          12.74025            
17        1.60559   0.74125   -286.84033          9.17342             
18        1.69917   0.78445   -286.84554          5.90400             
19        1.79822   0.83018   -286.84986          3.19168             
20        1.88673   0.87103   -286.85148          2.17697             
21        1.98214   0.91508   -286.85617          -0.76500            
22        2.07493   0.95792   -286.85759          -1.65509            
23        2.16607   1.00000   -286.85846          -2.20010            
