# Energy profile
1         0.00000   0.00000   -286.85499          0.00000             
2         0.19407   0.03580   -286.85180          2.00060             
3         0.38437   0.07090   -286.84627          5.46736             
4         0.57883   0.10677   -286.83722          11.14730            
5         0.78673   0.14512   -286.82779          17.06633            
6         0.99292   0.18315   -286.81550          24.77953            
7         1.19569   0.22055   -286.79921          35.00093            
8         1.38835   0.25609   -286.78043          46.78715            
9         1.64561   0.30354   -286.76931          53.76144            
10        1.82587   0.33679   -286.75327          63.82601            
11        2.07608   0.38294   -286.71644          86.93817            
12        2.29854   0.42398   -286.70834          92.02399            
13        2.50915   0.46283   -286.74828          66.96019            
14        2.69765   0.49760   -286.83212          14.34777            
15        2.92610   0.53973   -286.74663          67.99787            
16        3.25853   0.60105   -286.84449          6.58797             
17        3.47845   0.64162   -286.85350          0.93271             
18        3.64862   0.67301   -286.88070          -16.13596           
19        3.81635   0.70395   -286.90339          -30.37175           
20        4.07556   0.75176   -286.90545          -31.66533           
21        4.26072   0.78591   -286.91604          -38.31256           
22        4.45437   0.82163   -286.92675          -45.02930           
23        4.64967   0.85766   -286.93375          -49.42682           
24        4.83410   0.89168   -286.93788          -52.01486           
25        5.02107   0.92616   -286.94450          -56.17079           
26        5.22288   0.96339   -286.94914          -59.07931           
27        5.42137   1.00000   -286.95150          -60.56348           
