# Energy profile
1         0.00000   0.00000   -286.85499          0.00000             
2         0.14859   0.03766   -286.85332          1.04724             
3         0.31143   0.07892   -286.84976          3.27786             
4         0.47138   0.11945   -286.84653          5.30449             
5         0.61993   0.15710   -286.84185          8.24286             
6         0.77326   0.19595   -286.83550          12.23120            
7         0.92498   0.23440   -286.82689          17.63083            
8         1.08496   0.27494   -286.81419          25.59843            
9         1.26702   0.32108   -286.80466          31.57951            
10        1.41046   0.35743   -286.77860          47.93242            
11        1.55845   0.39493   -286.75326          63.83598            
12        1.71036   0.43343   -286.73018          78.31873            
13        1.92797   0.48857   -286.73565          74.88388            
14        2.22152   0.56296   -286.72650          80.62881            
15        2.37741   0.60247   -286.73858          73.04491            
16        2.51469   0.63726   -286.75903          60.21698            
17        2.66984   0.67658   -286.77812          48.23415            
18        2.83007   0.71718   -286.79256          39.17601            
19        3.00623   0.76182   -286.80603          30.72249            
20        3.16339   0.80165   -286.81621          24.33228            
21        3.31541   0.84017   -286.82539          18.57272            
22        3.48004   0.88189   -286.83348          13.49654            
23        3.63365   0.92082   -286.83734          11.07232            
24        3.80902   0.96526   -286.84249          7.84480             
25        3.94611   1.00000   -286.84435          6.67591             
