# Energy profile
1         0.00000   0.00000   -286.83831          0.00000             
2         0.25468   0.04064   -286.83281          3.45535             
3         0.49937   0.07968   -286.82298          9.61959             
4         0.73007   0.11650   -286.80819          18.90370            
5         1.00021   0.15960   -286.79094          29.73052            
6         1.26822   0.20237   -286.76961          43.11203            
7         1.52282   0.24299   -286.74382          59.29675            
8         1.84496   0.29440   -286.80109          23.35552            
9         2.37210   0.37851   -286.82730          6.90998             
10        2.60231   0.41525   -286.82461          8.60104             
11        2.83426   0.45226   -286.81317          15.77636            
12        3.05855   0.48805   -286.80534          20.69167            
13        3.25686   0.51969   -286.81065          17.35720            
14        3.50521   0.55932   -286.83191          4.01543             
15        3.83806   0.61243   -286.83906          -0.46601            
16        4.11238   0.65620   -286.85143          -8.23337            
17        4.38694   0.70002   -286.86189          -14.79537           
18        4.67455   0.74591   -286.87273          -21.59367           
19        4.93240   0.78705   -286.88685          -30.45417           
20        5.20747   0.83095   -286.89844          -37.73088           
21        5.47844   0.87418   -286.90845          -44.00934           
22        5.75165   0.91778   -286.91740          -49.62476           
23        5.99981   0.95738   -286.92192          -52.46291           
24        6.26692   1.00000   -286.92435          -53.98832           
