# Energy profile
1         0.00000   0.00000   -286.84051          0.00000             
2         0.15805   0.02352   -286.83835          1.35948             
3         0.31194   0.04643   -286.83611          2.76412             
4         0.48435   0.07209   -286.83144          5.69086             
5         0.67237   0.10007   -286.82632          8.90389             
6         0.83257   0.12391   -286.81805          14.09759            
7         1.01685   0.15134   -286.80819          20.28144            
8         1.18624   0.17655   -286.79489          28.63119            
9         1.33673   0.19895   -286.77729          39.66975            
10        1.49582   0.22263   -286.74775          58.20699            
11        1.68199   0.25034   -286.70655          84.06305            
12        1.88148   0.28003   -286.66462          110.37287           
13        2.15182   0.32026   -286.71236          80.41480            
14        2.45291   0.36507   -286.78716          33.47795            
15        2.85965   0.42561   -286.81120          18.39389            
16        3.03026   0.45100   -286.79729          27.12059            
17        3.13930   0.46723   -286.79047          31.40535            
18        3.33295   0.49605   -286.76338          48.40255            
19        3.50914   0.52228   -286.72684          71.33076            
20        3.69339   0.54970   -286.68189          99.53495            
21        3.86096   0.57464   -286.63547          128.66874           
22        4.51975   0.67269   -286.62917          132.61742           
23        4.66975   0.69501   -286.74090          62.51024            
24        4.93287   0.73417   -286.73383          66.94725            
25        5.13889   0.76484   -286.78270          36.28041            
26        5.30176   0.78908   -286.81904          13.47469            
27        5.48556   0.81643   -286.83247          5.04606             
28        5.67442   0.84454   -286.84517          -2.92517            
29        5.86436   0.87281   -286.85317          -7.94146            
30        6.04627   0.89989   -286.85859          -11.34469           
31        6.22634   0.92669   -286.86347          -14.40805           
32        6.39791   0.95222   -286.86882          -17.76212           
33        6.57490   0.97856   -286.87098          -19.11750           
34        6.71893   1.00000   -286.87241          -20.01670           
