# Energy profile
1         0.00000   0.00000   -286.85491          0.00000             
2         0.17497   0.02867   -286.85296          1.22599             
3         0.38381   0.06288   -286.84907          3.66551             
4         0.57570   0.09432   -286.84290          7.53578             
5         0.80335   0.13162   -286.83579          12.00060            
6         1.01657   0.16656   -286.82851          16.56865            
7         1.23233   0.20191   -286.81995          21.93961            
8         1.42429   0.23336   -286.80747          29.77451            
9         1.61751   0.26501   -286.79602          36.95409            
10        1.87528   0.30725   -286.81420          25.54809            
11        2.37019   0.38833   -286.83342          13.48631            
12        2.54733   0.41736   -286.83617          11.76307            
13        2.80644   0.45981   -286.82189          20.72560            
14        3.00615   0.49253   -286.81394          25.70853            
15        3.20970   0.52588   -286.82019          21.79213            
16        3.43813   0.56331   -286.82565          18.36503            
17        3.61419   0.59215   -286.83455          12.78123            
18        3.80607   0.62359   -286.84262          7.71677             
19        4.01498   0.65782   -286.85271          1.38006             
20        4.21141   0.69000   -286.86327          -5.24054            
21        4.42058   0.72427   -286.87649          -13.54191           
22        4.64824   0.76157   -286.88617          -19.61630           
23        4.85565   0.79555   -286.89437          -24.75869           
24        5.06930   0.83056   -286.90113          -28.99957           
25        5.30060   0.86846   -286.90782          -33.19754           
26        5.52157   0.90466   -286.91241          -36.07822           
27        5.72997   0.93880   -286.91867          -40.00676           
28        5.93498   0.97239   -286.92214          -42.18729           
29        6.10348   1.00000   -286.92435          -43.57439           
