# Energy profile
1         0.00000   0.00000   -286.92432          0.00000             
2         0.18456   0.03147   -286.92182          1.56882             
3         0.40267   0.06867   -286.91710          4.52927             
4         0.63437   0.10818   -286.91110          8.29355             
5         0.84723   0.14448   -286.90522          11.98474            
6         1.06635   0.18185   -286.89722          17.00350            
7         1.28090   0.21844   -286.88641          23.79079            
8         1.55292   0.26482   -286.88444          25.02470            
9         1.83656   0.31319   -286.88042          27.55069            
10        2.04317   0.34843   -286.86495          37.25843            
11        2.24326   0.38255   -286.85294          44.79066            
12        2.44122   0.41631   -286.84213          51.57744            
13        2.63391   0.44917   -286.83129          58.37700            
14        2.81627   0.48027   -286.82092          64.88385            
15        2.95862   0.50454   -286.80691          73.67450            
16        3.15757   0.53847   -286.79022          84.14870            
17        3.35170   0.57158   -286.79101          83.65360            
18        3.53405   0.60267   -286.78738          85.93320            
19        3.94240   0.67231   -286.77012          96.76476            
20        4.19675   0.71568   -286.76133          102.28084           
21        4.39441   0.74939   -286.77982          90.67275            
22        4.65330   0.79354   -286.78967          84.49466            
23        4.85113   0.82728   -286.80463          75.10819            
24        5.06897   0.86443   -286.81874          66.25400            
25        5.27741   0.89997   -286.82874          59.97868            
26        5.48364   0.93514   -286.83898          53.55024            
27        5.67326   0.96748   -286.84420          50.27952            
28        5.86396   1.00000   -286.84686          48.60703            
