# Energy profile
1         0.00000   0.00000   -286.83831          0.00000             
2         0.20390   0.04172   -286.83394          2.74149             
3         0.44364   0.09077   -286.82417          8.87044             
4         0.66991   0.13706   -286.81162          16.74687            
5         0.91633   0.18748   -286.79476          27.32700            
6         1.13325   0.23186   -286.77796          37.87111            
7         1.39565   0.28555   -286.79261          28.67535            
8         1.73516   0.35502   -286.80047          23.74388            
9         1.94298   0.39754   -286.81043          17.49603            
10        2.15918   0.44177   -286.82047          11.19087            
11        2.37058   0.48502   -286.82776          6.62008             
12        2.54216   0.52013   -286.83190          4.02224             
13        2.74078   0.56077   -286.83484          2.17451             
14        2.95119   0.60382   -286.83742          0.55910             
15        3.18760   0.65219   -286.84021          -1.19378            
16        3.39108   0.69382   -286.84253          -2.64984            
17        3.61036   0.73868   -286.84459          -3.94125            
18        3.84302   0.78629   -286.84598          -4.81370            
19        4.06747   0.83221   -286.84727          -5.62556            
20        4.28505   0.87673   -286.84760          -5.83173            
21        4.49401   0.91948   -286.84952          -7.03502            
22        4.68482   0.95852   -286.84960          -7.08480            
23        4.88757   1.00000   -286.85054          -7.67397            
