# Energy profile
1         0.00000   0.00000   -286.92434          0.00000             
2         0.35820   0.03135   -286.89838          16.29218            
3         0.69046   0.06043   -286.86785          35.44649            
4         1.05623   0.09244   -286.82762          60.69442            
5         1.39827   0.12238   -286.79268          82.61526            
6         1.76382   0.15437   -286.75901          103.74282           
7         2.14245   0.18751   -286.72998          121.96301           
8         2.49052   0.21797   -286.71005          134.46702           
9         2.85019   0.24945   -286.69852          141.70612           
10        3.18791   0.27901   -286.69334          144.95470           
11        3.57795   0.31315   -286.69987          140.85443           
12        3.94527   0.34529   -286.69443          144.26955           
13        4.27795   0.37441   -286.69090          146.48507           
14        4.60515   0.40305   -286.68980          147.17349           
15        4.94693   0.43296   -286.69290          145.22911           
16        5.30959   0.46470   -286.70541          137.37872           
17        5.66835   0.49610   -286.73083          121.42982           
18        5.98747   0.52403   -286.74441          112.90639           
19        6.32767   0.55381   -286.75656          105.28195           
20        6.67663   0.58435   -286.75741          104.75062           
21        7.04548   0.61663   -286.75698          105.01669           
22        7.43806   0.65099   -286.75528          106.08560           
23        7.77538   0.68051   -286.75154          108.43512           
24        8.16755   0.71483   -286.75362          107.12813           
25        8.52587   0.74619   -286.75112          108.69747           
26        8.92849   0.78143   -286.75256          107.79348           
27        9.34734   0.81809   -286.75277          107.65914           
28        9.71548   0.85031   -286.75685          105.09801           
29        10.07306  0.88161   -286.76026          102.96367           
30        10.40807  0.91093   -286.76289          101.30952           
31        10.75686  0.94145   -286.76556          99.63288            
32        11.09958  0.97145   -286.76829          97.92268            
33        11.42580  1.00000   -286.77107          96.17995            
