# Energy profile
1         0.00000   0.00000   -286.85491          0.00000             
2         0.15380   0.04063   -286.85382          0.68498             
3         0.29457   0.07781   -286.85304          1.17212             
4         0.46780   0.12356   -286.85090          2.51453             
5         0.61624   0.16277   -286.84883          3.81517             
6         0.76622   0.20239   -286.84728          4.79178             
7         0.93715   0.24754   -286.84294          7.51447             
8         1.08766   0.28729   -286.83945          9.69988             
9         1.24003   0.32754   -286.83413          13.04311            
10        1.39783   0.36922   -286.82781          17.00823            
11        1.56291   0.41282   -286.82227          20.48498            
12        1.72132   0.45466   -286.81629          24.23365            
13        1.85045   0.48877   -286.80814          29.34911            
14        2.03003   0.53621   -286.79371          38.40671            
15        2.31974   0.61273   -286.77903          47.61408            
16        2.51821   0.66515   -286.77910          47.57213            
17        2.67253   0.70591   -286.79332          38.65123            
18        2.81642   0.74392   -286.80539          31.07567            
19        2.99668   0.79153   -286.81817          23.05817            
20        3.15340   0.83293   -286.82962          15.87236            
21        3.32187   0.87743   -286.83775          10.76677            
22        3.49744   0.92380   -286.84564          5.81636             
23        3.63803   0.96094   -286.84947          3.41603             
24        3.78593   1.00000   -286.85164          2.05439             
