# Energy profile
1         0.00000   0.00000   -286.82496          0.00000             
2         0.16833   0.03719   -286.82234          1.64117             
3         0.36032   0.07961   -286.81520          6.11973             
4         0.54449   0.12029   -286.80633          11.68593            
5         0.72657   0.16052   -286.79714          17.45462            
6         0.92238   0.20378   -286.79867          16.49678            
7         1.15992   0.25626   -286.81223          7.98786             
8         1.35735   0.29987   -286.81044          9.11020             
9         1.52692   0.33734   -286.79939          16.04549            
10        1.71925   0.37983   -286.78951          22.24386            
11        1.91608   0.42331   -286.81054          9.04867             
12        2.08635   0.46093   -286.80698          11.28160            
13        2.24242   0.49541   -286.80583          12.00150            
14        2.45022   0.54132   -286.80851          10.32186            
15        2.76720   0.61135   -286.79188          20.75730            
16        2.97245   0.65669   -286.80850          10.32430            
17        3.13584   0.69279   -286.82308          1.17583             
18        3.30114   0.72931   -286.83782          -8.07036            
19        3.46546   0.76561   -286.84852          -14.78858           
20        3.64557   0.80540   -286.85787          -20.65553           
21        3.81359   0.84252   -286.86378          -24.36231           
22        4.00536   0.88489   -286.86874          -27.47668           
23        4.18660   0.92493   -286.87255          -29.86637           
24        4.35466   0.96206   -286.87373          -30.60621           
25        4.52640   1.00000   -286.87550          -31.71841           
