# Energy profile
1         0.00000   0.00000   -286.85499          0.00000             
2         0.17425   0.02869   -286.85302          1.23570             
3         0.38249   0.06299   -286.84901          3.75301             
4         0.57288   0.09434   -286.84256          7.79853             
5         0.79809   0.13142   -286.83506          12.50329            
6         1.00544   0.16557   -286.82843          16.66463            
7         1.19591   0.19694   -286.81706          23.79747            
8         1.39846   0.23029   -286.80525          31.20847            
9         1.60244   0.26388   -286.79227          39.35686            
10        1.86704   0.30745   -286.81421          25.59073            
11        2.39467   0.39434   -286.83438          12.92926            
12        2.54787   0.41957   -286.83339          13.55380            
13        2.80522   0.46195   -286.81955          22.23854            
14        2.98812   0.49206   -286.81298          26.35854            
15        3.15681   0.51984   -286.82055          21.61109            
16        3.35399   0.55231   -286.82381          19.56453            
17        3.54086   0.58309   -286.83057          15.32061            
18        3.74086   0.61602   -286.83968          9.60694             
19        3.94226   0.64919   -286.84939          3.51002             
20        4.14555   0.68266   -286.86209          -4.45461            
21        4.35310   0.71684   -286.87393          -11.88899           
22        4.56678   0.75203   -286.88484          -18.73486           
23        4.80140   0.79066   -286.89446          -24.77216           
24        5.01630   0.82605   -286.90084          -28.77083           
25        5.24988   0.86452   -286.90817          -33.37180           
26        5.44556   0.89674   -286.91402          -37.04542           
27        5.68729   0.93655   -286.91848          -39.84447           
28        5.90442   0.97230   -286.92211          -42.12280           
29        6.07262   1.00000   -286.92431          -43.50074           
