# Energy profile
1         0.00000   0.00000   -286.82496          0.00000             
2         0.10558   0.04055   -286.82226          1.68854             
3         0.21465   0.08244   -286.82276          1.38008             
4         0.31848   0.12232   -286.82019          2.99327             
5         0.41985   0.16125   -286.81636          5.39279             
6         0.52043   0.19988   -286.81190          8.19065             
7         0.61953   0.23795   -286.80717          11.16304            
8         0.80106   0.30767   -286.81746          4.70513             
9         0.96268   0.36974   -286.82378          0.73464             
10        1.08190   0.41553   -286.82759          -1.65374            
11        1.16666   0.44808   -286.82677          -1.14060            
12        1.28727   0.49441   -286.82635          -0.87314            
13        1.35777   0.52148   -286.82493          0.01380             
14        1.44920   0.55660   -286.82140          2.22903             
15        1.57278   0.60406   -286.82107          2.43768             
16        1.67686   0.64404   -286.82577          -0.51306            
17        1.78288   0.68476   -286.83113          -3.87469            
18        1.87409   0.71979   -286.83586          -6.84469            
19        1.97846   0.75987   -286.84019          -9.56143            
20        2.07794   0.79808   -286.84338          -11.56072           
21        2.17332   0.83472   -286.84619          -13.32730           
22        2.26477   0.86984   -286.84764          -14.23330           
23        2.39262   0.91894   -286.84874          -14.92478           
24        2.50102   0.96058   -286.85039          -15.96178           
25        2.60367   1.00000   -286.85165          -16.75276           
