# Energy profile
1         0.00000   0.00000   -286.87548          0.00000             
2         0.18031   0.04051   -286.87322          1.41975             
3         0.35744   0.08031   -286.86712          5.25042             
4         0.55999   0.12582   -286.86076          9.24079             
5         0.73377   0.16487   -286.85177          14.88270            
6         0.91486   0.20555   -286.84052          21.94338            
7         1.09257   0.24548   -286.82985          28.63899            
8         1.31024   0.29439   -286.82562          31.29291            
9         1.51202   0.33973   -286.83931          22.69983            
10        1.71317   0.38492   -286.85977          9.85962             
11        1.91886   0.43114   -286.87816          -1.67737            
12        2.12480   0.47741   -286.89038          -9.34781            
13        2.26545   0.50901   -286.89637          -13.10833           
14        2.41669   0.54299   -286.90070          -15.82569           
15        2.61442   0.58742   -286.90477          -18.37781           
16        2.78520   0.62579   -286.90746          -20.06242           
17        2.96814   0.66689   -286.91022          -21.79918           
18        3.17185   0.71266   -286.91283          -23.43709           
19        3.34754   0.75214   -286.91322          -23.67823           
20        3.55073   0.79779   -286.91541          -25.05342           
21        3.76668   0.84631   -286.91797          -26.65956           
22        3.93881   0.88498   -286.91992          -27.88587           
23        4.12121   0.92597   -286.92239          -29.43613           
24        4.28243   0.96219   -286.92293          -29.76962           
25        4.45071   1.00000   -286.92434          -30.65851           
