# Energy profile
1         0.00000   0.00000   -286.85060          0.00000             
2         0.31440   0.04628   -286.84663          2.48631             
3         0.61445   0.09044   -286.83932          7.07575             
4         0.94394   0.13894   -286.83170          11.86073            
5         1.23316   0.18151   -286.82076          18.72396            
6         1.53507   0.22595   -286.80740          27.10822            
7         1.86394   0.27436   -286.79020          37.90014            
8         2.22112   0.32693   -286.78810          39.21453            
9         2.54430   0.37451   -286.80182          30.60508            
10        2.86366   0.42151   -286.81650          21.39356            
11        3.17665   0.46758   -286.82494          16.10126            
12        3.44096   0.50649   -286.83110          12.23174            
13        3.70834   0.54584   -286.83273          11.21102            
14        4.02304   0.59217   -286.83354          10.70509            
15        4.33340   0.63785   -286.83410          10.35100            
16        4.65620   0.68536   -286.83501          9.78205             
17        4.96595   0.73096   -286.83641          8.90239             
18        5.26590   0.77511   -286.83704          8.50682             
19        5.55437   0.81757   -286.83858          7.54087             
20        5.83424   0.85876   -286.83868          7.47491             
21        6.16755   0.90782   -286.83957          6.91849             
22        6.51064   0.95833   -286.84174          5.55707             
23        6.79377   1.00000   -286.84377          4.28277             
