# Energy profile
1         0.00000   0.00000   -286.92431          0.00000             
2         0.23869   0.02066   -286.91471          6.02746             
3         0.49162   0.04255   -286.88932          21.95643            
4         0.74196   0.06422   -286.85846          41.32191            
5         0.99556   0.08617   -286.82253          63.86666            
6         1.25372   0.10852   -286.78596          86.81682            
7         1.57116   0.13600   -286.78258          88.93494            
8         2.18867   0.18945   -286.79222          82.88654            
9         2.71625   0.23511   -286.80509          74.81168            
10        3.18398   0.27560   -286.81906          66.04663            
11        3.58112   0.30997   -286.83322          57.16141            
12        3.94028   0.34106   -286.84604          49.11300            
13        4.30925   0.37300   -286.84577          49.28307            
14        4.55629   0.39438   -286.80828          72.80944            
15        4.81084   0.41641   -286.77160          95.82893            
16        5.09237   0.44078   -286.73150          120.99210           
17        5.30524   0.45921   -286.70706          136.32922           
18        5.60779   0.48540   -286.67354          157.35897           
19        6.00011   0.51935   -286.73840          116.66320           
20        6.31860   0.54692   -286.80107          77.33360            
21        6.53903   0.56600   -286.78499          87.42669            
22        6.72981   0.58251   -286.82776          60.58488            
23        6.98289   0.60442   -286.81884          66.18542            
24        7.20273   0.62345   -286.84203          51.63221            
25        7.48744   0.64809   -286.83188          58.00071            
26        7.73431   0.66946   -286.84401          50.38864            
27        7.97734   0.69050   -286.85320          44.62228            
28        8.31970   0.72013   -286.85249          45.07053            
29        8.62934   0.74693   -286.85346          44.46118            
30        8.94043   0.77386   -286.86078          39.86649            
31        9.25397   0.80100   -286.85172          45.55325            
32        9.55509   0.82706   -286.84295          51.05628            
33        9.85540   0.85306   -286.83220          57.79823            
34        10.24318  0.88662   -286.82483          62.42760            
35        10.53846  0.91218   -286.81523          68.44870            
36        10.82200  0.93672   -286.83928          53.35896            
37        11.06370  0.95764   -286.83520          55.92032            
38        11.29189  0.97739   -286.85899          40.99184            
39        11.55305  1.00000   -286.87079          33.58670            
