# Energy profile
1         0.00000   0.00000   -286.83831          0.00000             
2         0.10107   0.03010   -286.83777          0.34359             
3         0.21299   0.06343   -286.83702          0.80959             
4         0.32345   0.09633   -286.83567          1.65936             
5         0.45680   0.13604   -286.83382          2.82145             
6         0.56410   0.16800   -286.83254          3.62202             
7         0.68931   0.20529   -286.83101          4.58374             
8         0.81053   0.24139   -286.83036          4.98875             
9         0.92816   0.27642   -286.82946          5.55756             
10        1.04682   0.31176   -286.82831          6.27624             
11        1.14933   0.34229   -286.82486          8.44153             
12        1.25860   0.37483   -286.81994          11.53097            
13        1.57535   0.46917   -286.78483          33.56040            
14        1.86229   0.55462   -286.81810          12.68752            
15        2.02719   0.60373   -286.79191          29.12044            
16        2.14243   0.63805   -286.78878          31.08353            
17        2.24402   0.66831   -286.80009          23.98776            
18        2.34686   0.69894   -286.80924          18.24338            
19        2.46487   0.73408   -286.81622          13.86277            
20        2.57798   0.76777   -286.82061          11.10849            
21        2.70366   0.80520   -286.82449          8.67240             
22        2.81287   0.83772   -286.82833          6.26668             
23        2.91610   0.86847   -286.83045          4.93301             
24        3.04783   0.90770   -286.83297          3.35235             
25        3.15673   0.94013   -286.83499          2.08431             
26        3.25368   0.96900   -286.83583          1.55615             
27        3.35776   1.00000   -286.83649          1.14704             
