# Energy profile
1         0.00000   0.00000   -286.85164          0.00000             
2         0.07458   0.04272   -286.85022          0.89132             
3         0.14890   0.08530   -286.84976          1.18053             
4         0.22989   0.13170   -286.84977          1.17174             
5         0.29736   0.17034   -286.84925          1.49997             
6         0.37167   0.21291   -286.84758          2.54480             
7         0.43579   0.24964   -286.84610          3.47470             
8         0.49280   0.28230   -286.84451          4.47070             
9         0.56500   0.32366   -286.84081          6.79511             
10        0.62555   0.35835   -286.83968          7.50428             
11        0.69292   0.39694   -286.83679          9.31900             
12        0.76320   0.43720   -286.83419          10.94760            
13        0.84616   0.48473   -286.83137          12.71825            
14        0.89725   0.51400   -286.82775          14.98993            
15        0.96520   0.55292   -286.82296          17.99501            
16        1.05137   0.60228   -286.81986          19.94205            
17        1.12775   0.64604   -286.82000          19.85204            
18        1.20473   0.69014   -286.82319          17.84832            
19        1.26345   0.72377   -286.82423          17.19552            
20        1.32622   0.75974   -286.82855          14.48692            
21        1.41093   0.80826   -286.83154          12.60766            
22        1.48294   0.84951   -286.83270          11.88400            
23        1.55671   0.89177   -286.83412          10.99322            
24        1.62456   0.93064   -286.83399          11.07445            
25        1.68030   0.96257   -286.82836          14.60729            
26        1.74564   1.00000   -286.83648          9.51100             
