# Energy profile
1         0.00000   0.00000   -286.85167          0.00000             
2         0.17951   0.04435   -286.84807          2.26403             
3         0.34471   0.08516   -286.84058          6.96090             
4         0.53804   0.13293   -286.82980          13.72307            
5         0.72585   0.17933   -286.81644          22.10825            
6         0.91588   0.22628   -286.80424          29.76288            
7         1.14787   0.28360   -286.81464          23.23707            
8         1.45438   0.35932   -286.82124          19.09679            
9         1.63012   0.40274   -286.82617          16.00131            
10        1.80573   0.44613   -286.83039          13.35618            
11        1.97812   0.48872   -286.83411          11.01937            
12        2.10120   0.51913   -286.83647          9.54006             
13        2.23374   0.55187   -286.83834          8.36924             
14        2.41445   0.59652   -286.84060          6.94621             
15        2.60069   0.64254   -286.84260          5.69217             
16        2.79961   0.69168   -286.84430          4.62730             
17        2.98459   0.73738   -286.84515          4.09178             
18        3.16389   0.78168   -286.84658          3.19432             
19        3.35007   0.82768   -286.84787          2.38428             
20        3.53719   0.87391   -286.84911          1.60782             
21        3.71292   0.91733   -286.84988          1.12640             
22        3.87224   0.95669   -286.84934          1.46661             
23        4.04755   1.00000   -286.85058          0.68452             
