# Energy profile
1         0.00000   0.00000   -286.83838          0.00000             
2         0.07508   0.03923   -286.83291          3.43273             
3         0.14037   0.07334   -286.83738          0.62852             
4         0.21437   0.11201   -286.83669          1.06163             
5         0.29831   0.15586   -286.83595          1.52210             
6         0.37490   0.19588   -286.83486          2.20951             
7         0.44592   0.23299   -286.83380          2.87498             
8         0.51641   0.26981   -286.83211          3.93447             
9         0.58438   0.30533   -286.83016          5.16110             
10        0.64703   0.33806   -286.82817          6.40542             
11        0.74201   0.38769   -286.82488          8.47055             
12        0.82138   0.42915   -286.82487          8.47994             
13        0.92582   0.48372   -286.82434          8.81172             
14        1.07760   0.56302   -286.82864          6.11165             
15        1.15543   0.60369   -286.83165          4.22188             
16        1.22778   0.64149   -286.83591          1.55307             
17        1.30128   0.67989   -286.83955          -0.73253            
18        1.36662   0.71403   -286.83969          -0.82145            
19        1.43472   0.74961   -286.84523          -4.29688            
20        1.51004   0.78897   -286.84667          -5.20399            
21        1.57848   0.82473   -286.84886          -6.57831            
22        1.65499   0.86470   -286.84948          -6.96414            
23        1.72749   0.90258   -286.85026          -7.45350            
24        1.82275   0.95235   -286.84926          -6.82897            
25        1.91395   1.00000   -286.85165          -8.32731            
