# Energy profile
1         0.00000   0.00000   -286.72397          0.00000             
2         0.13029   0.03446   -286.71933          2.91563             
3         0.25384   0.06713   -286.72163          1.46855             
4         0.39403   0.10421   -286.71959          2.74741             
5         0.53601   0.14176   -286.71892          3.17371             
6         0.71048   0.18791   -286.71605          4.97033             
7         0.84169   0.22261   -286.71239          7.26617             
8         0.96658   0.25564   -286.70868          9.59784             
9         1.08615   0.28726   -286.70374          12.69888            
10        1.20237   0.31800   -286.69833          16.09440            
11        1.34185   0.35489   -286.69589          17.62343            
12        1.54912   0.40970   -286.71921          2.99059             
13        1.81407   0.47978   -286.75828          -21.52689           
14        2.08135   0.55047   -286.74577          -13.67986           
15        2.24244   0.59307   -286.76602          -26.38637           
16        2.42003   0.64004   -286.80048          -48.01036           
17        2.56411   0.67814   -286.82071          -60.70223           
18        2.70164   0.71452   -286.83603          -70.31514           
19        2.83310   0.74928   -286.84664          -76.97379           
20        3.01466   0.79730   -286.85401          -81.59823           
21        3.18922   0.84347   -286.85890          -84.66737           
22        3.35486   0.88728   -286.86284          -87.14263           
23        3.49542   0.92445   -286.86695          -89.71896           
24        3.64060   0.96285   -286.87020          -91.76057           
25        3.78106   1.00000   -286.87238          -93.12437           
