# Energy profile
1         0.00000   0.00000   -286.85847          0.00000             
2         0.20974   0.03625   -286.85365          3.02018             
3         0.45618   0.07884   -286.84232          10.12958            
4         0.68160   0.11780   -286.82833          18.91040            
5         0.91593   0.15830   -286.81183          29.26574            
6         1.15546   0.19970   -286.79869          37.50884            
7         1.45771   0.25193   -286.80650          32.60688            
8         1.67787   0.28998   -286.80122          35.92166            
9         1.88929   0.32652   -286.78902          43.57682            
10        2.10916   0.36452   -286.77562          51.98892            
11        2.37534   0.41052   -286.78309          47.30142            
12        2.59257   0.44807   -286.79017          42.85913            
13        2.91604   0.50397   -286.82485          21.09299            
14        3.27556   0.56611   -286.80762          31.90700            
15        3.53828   0.61151   -286.80411          34.11055            
16        3.74458   0.64717   -286.81682          26.13179            
17        3.95959   0.68433   -286.82632          20.17161            
18        4.18881   0.72394   -286.83151          16.91275            
19        4.41470   0.76298   -286.83597          14.11637            
20        4.64471   0.80273   -286.83876          12.36865            
21        4.88380   0.84405   -286.84225          10.17616            
22        5.12706   0.88610   -286.84359          9.33682             
23        5.35539   0.92556   -286.84701          7.18937             
24        5.58296   0.96489   -286.84772          6.74141             
25        5.78613   1.00000   -286.85056          4.95881             
