# Energy profile
1         0.00000   0.00000   -286.92432          0.00000             
2         0.15640   0.02768   -286.92172          1.62790             
3         0.34429   0.06092   -286.91791          4.02220             
4         0.56901   0.10069   -286.91256          7.37715             
5         0.78390   0.13872   -286.90681          10.98536            
6         1.00919   0.17858   -286.89863          16.11941            
7         1.21252   0.21456   -286.89168          20.47887            
8         1.49910   0.26527   -286.88883          22.27149            
9         1.77018   0.31324   -286.88447          25.00558            
10        1.96097   0.34700   -286.87235          32.61380            
11        2.15812   0.38189   -286.85817          41.50817            
12        2.34933   0.41573   -286.84337          50.79798            
13        2.58303   0.45708   -286.84507          49.73106            
14        2.83035   0.50085   -286.80621          74.11153            
15        3.02631   0.53552   -286.78726          86.00422            
16        3.23615   0.57265   -286.79844          78.98919            
17        3.45582   0.61153   -286.81187          70.56421            
18        3.65555   0.64687   -286.81196          70.50755            
19        3.92508   0.69456   -286.78886          85.00315            
20        4.19888   0.74301   -286.78870          85.10234            
21        4.48268   0.79323   -286.79447          81.48358            
22        4.67347   0.82700   -286.80650          73.93079            
23        4.88087   0.86370   -286.81537          68.36710            
24        5.08647   0.90008   -286.82497          62.34165            
25        5.26547   0.93175   -286.83206          57.89103            
26        5.45625   0.96551   -286.83641          55.16394            
27        5.65114   1.00000   -286.84048          52.60649            
