# Energy profile
1         0.00000   0.00000   -286.83776          0.00000             
2         0.25578   0.03701   -286.83123          4.10121             
3         0.49792   0.07205   -286.81757          12.67369            
4         0.75048   0.10859   -286.80161          22.68626            
5         1.01889   0.14743   -286.78126          35.45419            
6         1.29081   0.18678   -286.76430          46.10065            
7         1.59310   0.23052   -286.77036          42.29512            
8         1.84411   0.26684   -286.75601          51.29848            
9         2.13280   0.30861   -286.76341          46.65982            
10        2.56531   0.37119   -286.78443          33.46466            
11        2.96289   0.42872   -286.79244          28.44264            
12        3.17318   0.45915   -286.79652          25.88055            
13        3.39748   0.49161   -286.80748          19.00252            
14        3.56993   0.51656   -286.82086          10.60881            
15        3.78374   0.54750   -286.82980          4.99788             
16        4.03715   0.58417   -286.84516          -4.64014            
17        4.27865   0.61911   -286.85988          -13.87782           
18        4.63352   0.67046   -286.85934          -13.53965           
19        4.88483   0.70682   -286.87383          -22.63048           
20        5.14861   0.74499   -286.88540          -29.88908           
21        5.40784   0.78250   -286.89413          -35.37305           
22        5.67276   0.82083   -286.90308          -40.98939           
23        5.93740   0.85913   -286.90944          -44.97648           
24        6.18703   0.89525   -286.91323          -47.35819           
25        6.43630   0.93132   -286.91885          -50.88448           
26        6.69342   0.96852   -286.91945          -51.25745           
27        6.91097   1.00000   -286.92434          -54.33012           
