# Energy profile
1         0.00000   0.00000   -286.85491          0.00000             
2         0.17871   0.03613   -286.85147          2.16204             
3         0.34797   0.07035   -286.85249          1.51928             
4         0.53956   0.10908   -286.84951          3.39218             
5         0.70032   0.14158   -286.84822          4.20064             
6         0.87697   0.17730   -286.84616          5.49460             
7         1.05076   0.21243   -286.84183          8.20785             
8         1.23935   0.25056   -286.83744          10.96668            
9         1.41761   0.28660   -286.83284          13.85065            
10        1.58801   0.32105   -286.82640          17.89280            
11        1.75432   0.35467   -286.81991          21.96243            
12        1.99418   0.40316   -286.82354          19.68382            
13        2.18880   0.44251   -286.83244          14.10135            
14        2.41407   0.48805   -286.83279          13.87966            
15        2.66755   0.53930   -286.79920          34.95702            
16        2.90810   0.58793   -286.78804          41.96098            
17        3.08806   0.62431   -286.76779          54.66878            
18        3.26490   0.66007   -286.76890          53.97204            
19        3.45687   0.69888   -286.76895          53.94259            
20        3.65380   0.73869   -286.78280          45.25041            
21        3.87866   0.78415   -286.78669          42.81207            
22        4.06227   0.82127   -286.80068          34.02850            
23        4.25043   0.85931   -286.81342          26.03913            
24        4.44036   0.89771   -286.82428          19.22457            
25        4.62602   0.93524   -286.83134          14.79174            
26        4.77808   0.96598   -286.83642          11.60434            
27        4.94633   1.00000   -286.83833          10.40590            
