# Energy profile
1         0.00000   0.00000   -286.83834          0.00000             
2         0.06054   0.04071   -286.83715          0.74644             
3         0.12230   0.08223   -286.83737          0.60867             
4         0.17916   0.12046   -286.83671          1.02354             
5         0.25778   0.17333   -286.83620          1.34016             
6         0.32483   0.21841   -286.83372          2.89516             
7         0.38523   0.25903   -286.83467          2.30037             
8         0.44797   0.30121   -286.83307          3.30440             
9         0.51382   0.34548   -286.83106          4.56545             
10        0.58822   0.39551   -286.82995          5.26207             
11        0.65286   0.43897   -286.82792          6.53971             
12        0.71647   0.48175   -286.82521          8.23554             
13        0.76264   0.51279   -286.82278          9.76304             
14        0.83080   0.55862   -286.82086          10.96479            
15        0.90420   0.60797   -286.81745          13.10885            
16        0.97689   0.65684   -286.81486          14.73290            
17        1.05616   0.71015   -286.81441          15.01651            
18        1.12597   0.75708   -286.81678          13.52607            
19        1.18750   0.79845   -286.81910          12.07327            
20        1.24008   0.83381   -286.81863          12.36590            
21        1.30394   0.87675   -286.82218          10.14192            
22        1.36476   0.91765   -286.82381          9.11444             
23        1.42487   0.95806   -286.82333          9.41799             
24        1.48724   1.00000   -286.82498          8.37960             
