# Energy profile
1         0.00000   0.00000   -286.85166          0.00000             
2         0.08757   0.04281   -286.84996          1.06529             
3         0.16691   0.08159   -286.85071          0.59469             
4         0.24911   0.12177   -286.84977          1.18493             
5         0.32989   0.16126   -286.84831          2.10274             
6         0.40396   0.19747   -286.84697          2.94470             
7         0.48109   0.23517   -286.84535          3.95853             
8         0.56258   0.27501   -286.84249          5.75653             
9         0.63883   0.31228   -286.83907          7.90167             
10        0.70812   0.34615   -286.83584          9.92773             
11        0.79119   0.38676   -286.83164          12.56230            
12        0.87208   0.42630   -286.82859          14.47981            
13        0.98199   0.48003   -286.82813          14.76771            
14        1.08916   0.53242   -286.82423          17.21154            
15        1.18518   0.57936   -286.82469          16.92345            
16        1.29778   0.63440   -286.82860          14.47397            
17        1.36774   0.66860   -286.82978          13.72870            
18        1.43906   0.70347   -286.83161          12.58506            
19        1.51746   0.74179   -286.83319          11.58906            
20        1.59366   0.77904   -286.83492          10.50300            
21        1.68459   0.82349   -286.83514          10.36482            
22        1.80608   0.88288   -286.83682          9.31574             
23        1.88362   0.92078   -286.83722          9.05900             
24        1.96516   0.96064   -286.83647          9.52952             
25        2.04568   1.00000   -286.83832          8.36868             
