# Energy profile
1         0.00000   0.00000   -286.92435          0.00000             
2         0.22287   0.02250   -286.91635          5.02087             
3         0.46125   0.04656   -286.89484          18.51814            
4         0.70949   0.07161   -286.86229          38.93948            
5         0.94808   0.09570   -286.82718          60.97093            
6         1.20665   0.12180   -286.78502          87.42762            
7         1.46141   0.14751   -286.75015          109.31208           
8         1.77781   0.17945   -286.74284          113.89585           
9         2.32419   0.23460   -286.73653          117.85848           
10        2.81779   0.28442   -286.73103          121.30888           
11        3.11940   0.31486   -286.71166          133.46164           
12        3.36412   0.33956   -286.70056          140.42942           
13        3.69422   0.37288   -286.72922          122.44385           
14        4.22878   0.42684   -286.79232          82.84565            
15        4.73312   0.47775   -286.82414          62.88090            
16        4.91953   0.49656   -286.83519          55.94840            
17        5.09890   0.51467   -286.84602          49.14867            
18        5.26805   0.53174   -286.85440          43.89417            
19        5.57230   0.56245   -286.85644          42.60910            
20        5.82626   0.58809   -286.85786          41.72350            
21        6.07039   0.61273   -286.85564          43.11455            
22        6.31348   0.63726   -286.85325          44.61063            
23        6.55811   0.66196   -286.85358          44.40874            
24        6.86152   0.69258   -286.84857          47.55102            
25        7.10455   0.71711   -286.84898          47.29518            
26        7.36125   0.74302   -286.85061          46.27186            
27        7.62917   0.77007   -286.85046          46.36461            
28        7.95014   0.80246   -286.84082          52.41277            
29        8.24830   0.83256   -286.83219          57.83060            
30        8.61306   0.86938   -286.82874          59.99551            
31        8.91284   0.89964   -286.82419          62.84655            
32        9.12381   0.92093   -286.82036          65.24979            
33        9.42021   0.95085   -286.83875          53.71437            
34        9.66020   0.97507   -286.86273          38.66692            
35        9.90716   1.00000   -286.87239          32.60416            
