# Energy profile
1         0.00000   0.00000   -286.84620          0.00000             
2         0.33168   0.03437   -286.83784          5.24603             
3         0.71356   0.07394   -286.82046          16.15238            
4         1.11212   0.11524   -286.81312          20.75864            
5         1.53629   0.15920   -286.79273          33.55221            
6         1.90115   0.19701   -286.77968          41.74409            
7         2.27459   0.23571   -286.77737          43.19129            
8         2.68969   0.27872   -286.79846          29.95857            
9         3.10789   0.32206   -286.81834          17.47907            
10        3.46604   0.35917   -286.82576          12.82348            
11        3.83693   0.39760   -286.83196          8.93227             
12        4.21352   0.43663   -286.83578          6.53506             
13        4.58219   0.47483   -286.83787          5.22527             
14        4.82304   0.49979   -286.83866          4.73131             
15        5.06846   0.52522   -286.83887          4.59572             
16        5.44113   0.56384   -286.83891          4.57464             
17        5.81257   0.60233   -286.83907          4.47507             
18        6.19762   0.64223   -286.83787          5.22532             
19        6.59492   0.68340   -286.83693          5.81509             
20        6.99861   0.72524   -286.83485          7.11907             
21        7.40259   0.76710   -286.83342          8.01948             
22        7.79020   0.80726   -286.83317          8.17387             
23        8.19488   0.84920   -286.83393          7.69899             
24        8.55647   0.88667   -286.83509          6.97206             
25        8.91794   0.92413   -286.83689          5.84253             
26        9.26702   0.96030   -286.84107          3.21511             
27        9.65012   1.00000   -286.84378          1.51599             
