# Energy profile
1         0.00000   0.00000   -286.85846          0.00000             
2         0.14705   0.04146   -286.85730          0.72827             
3         0.29307   0.08263   -286.85598          1.55609             
4         0.45522   0.12834   -286.85485          2.26929             
5         0.63274   0.17839   -286.85130          4.49644             
6         0.76845   0.21665   -286.84956          5.58564             
7         0.94406   0.26617   -286.84533          8.24352             
8         1.10811   0.31242   -286.84226          10.16998            
9         1.26694   0.35720   -286.83713          13.38332            
10        1.42494   0.40174   -286.82962          18.09875            
11        1.56681   0.44174   -286.81109          29.72399            
12        1.68085   0.47389   -286.79996          36.70854            
13        1.84650   0.52060   -286.78006          49.19696            
14        2.00829   0.56621   -286.77526          52.21327            
15        2.15569   0.60777   -286.78248          47.67740            
16        2.31686   0.65321   -286.78567          45.67832            
17        2.50259   0.70557   -286.78797          44.23222            
18        2.65821   0.74945   -286.79150          42.02043            
19        2.81142   0.79264   -286.79710          38.50778            
20        2.96340   0.83549   -286.80573          33.09144            
21        3.10961   0.87671   -286.81367          28.10450            
22        3.25424   0.91749   -286.81947          24.46986            
23        3.40602   0.96028   -286.82325          22.09725            
24        3.54689   1.00000   -286.82494          21.03570            
